# h [m]         T [K]           p [Pa]          rho [kg/m3]
0		288.15		101325		1.225
500		284.9		95460.8		1.16727
1000		281.65		89874.6		1.11164
1500		278.4		84556		1.05807
2000		275.15		79495.2		1.00649
2500		271.9		74682.5		0.956859
3000		268.65		70108.5		0.909122
3500		265.4		65764.1		0.863229
4000		262.15		61640.2		0.819129
4500		258.9		57728.3		0.776775
5000		255.65		54019.9		0.736116
5500		252.4		50506.8		0.697106
6000		249.15		47181		0.659697
6500		245.9		44034.8		0.623844
7000		242.65		41060.7		0.589501
7500		239.4		38251.4		0.556624
8000		236.15		35599.8		0.525168
8500		232.9		33099		0.49509
9000		229.65		30742.5		0.466348
9500		226.4		28523.6		0.438901
10000		223.15		26436.3		0.412707
10500		219.9		24474.4		0.387725
11000		216.65		22632.1		0.363918
11500		216.65		20916.2		0.336327
12000		216.65		19330.4		0.310828
12500		216.65		17864.8		0.287262
13000		216.65		16510.4		0.265483
13500		216.65		15258.7		0.245355
14000		216.65		14101.8		0.226753
14500		216.65		13032.7		0.209562
15000		216.65		12044.6		0.193674
15500		216.65		11131.4		0.17899
16000		216.65		10287.5		0.16542
16500		216.65		9507.5		0.152878
17000		216.65		8786.68		0.141288
17500		216.65		8120.51		0.130576
18000		216.65		7504.84		0.120676
18500		216.65		6935.86		0.111527
19000		216.65		6410.01		0.103071
19500		216.65		5924.03		0.0952569
20000		216.65		5474.89		0.0880349
20500		217.15		5060.26		0.0811804
21000		217.65		4677.89		0.0748737
21500		218.15		4325.18		0.0690697
22000		218.65		3999.79		0.0637273
22500		219.15		3699.54		0.0588091
23000		219.65		3422.43		0.0542803
23500		220.15		3166.65		0.0501094
24000		220.65		2930.49		0.0462674
24500		221.15		2712.42		0.0427276
25000		221.65		2511.02		0.0394658
25500		222.15		2324.98		0.0364595
26000		222.65		2153.09		0.0336882
26500		223.15		1994.26		0.0311331
27000		223.65		1847.46		0.0287769
27500		224.15		1711.75		0.0266036
28000		224.65		1586.29		0.0245988
28500		225.15		1470.27		0.022749
29000		225.65		1362.96		0.021042
29500		226.15		1263.7		0.0194664
30000		226.65		1171.87		0.0180119
30500		227.15		1086.88		0.016669
31000		227.65		1008.23		0.0154288
31500		228.15		935.425		0.0142832
32000		228.65		868.019		0.013225
32500		230.05		805.719		0.0122011
33000		231.45		748.228		0.011262
33500		232.85		695.15		0.0104002
34000		234.25		646.122		0.00960889
34500		235.65		600.814		0.008882
35000		237.05		558.924		0.00821392
35500		238.45		520.175		0.00759959
36000		239.85		484.317		0.00703441
36500		241.25		451.118		0.00651419
37000		242.65		420.367		0.00603513
37500		244.05		391.872		0.00559375
38000		245.45		365.455		0.00518691
38500		246.85		340.954		0.00481172
39000		248.25		318.22		0.00446557
39500		249.65		297.118		0.00414606
40000		251.05		277.522		0.00385101
40500		252.45		259.316		0.00357842
41000		253.85		242.395		0.00332648
41500		255.25		226.663		0.00309352
42000		256.65		212.03		0.00287802
42500		258.05		198.413		0.00267858
43000		259.45		185.738		0.00249393
43500		260.85		173.934		0.00232291
44000		262.25		162.937		0.00216443
44500		263.65		152.689		0.00201752
45000		265.05		143.135		0.00188129
45500		266.45		134.224		0.0017549
46000		267.85		125.91		0.0016376
46500		269.25		118.151		0.00152869
47000		270.65		110.906		0.00142753
47500		270.65		104.123		0.00134022
48000		270.65		97.7545		0.00125825
48500		270.65		91.7756		0.00118129
49000		270.65		86.1623		0.00110904
49500		270.65		80.8924		0.00104121
50000		270.65		75.9448		0.000977525
50500		270.65		71.2998		0.000917737
51000		270.65		66.9389		0.000861606
51500		269.25		62.8344		0.00081298
52000		267.85		58.9622		0.000766867
52500		266.45		55.3101		0.000723147
53000		265.05		51.8668		0.00068171
53500		263.65		48.6213		0.000642446
54000		262.25		45.5632		0.000605252
54500		260.85		42.6826		0.00057003
55000		259.45		39.97		0.000536684
55500		258.05		37.4166		0.000505124
56000		256.65		35.0137		0.000475263
56500		255.25		32.7532		0.000447019
57000		253.85		30.6274		0.000420311
57500		252.45		28.629		0.000395065
58000		251.05		26.7509		0.000371207
58500		249.65		24.9865		0.000348668
59000		248.25		23.3296		0.000327382
59500		246.85		21.774		0.000307287
60000		245.45		20.3143		0.000288321
60500		244.05		18.9448		0.000270427
61000		242.65		17.6606		0.00025355
61500		241.25		16.4568		0.000237638
62000		239.85		15.3287		0.00022264
62500		238.45		14.272		0.000208509
63000		237.05		13.2826		0.0001952
63500		235.65		12.3565		0.000182669
64000		234.25		11.49		0.000170875
64500		232.85		10.6796		0.000159778
65000		231.45		9.92203		0.000149342
65500		230.05		9.21406		0.00013953
66000		228.65		8.55275		0.000130308
66500		227.25		7.93526		0.000121645
67000		225.85		7.35895		0.00011351
67500		224.45		6.8213		0.000105873
68000		223.05		6.31992		9.87069E-05
68500		221.65		5.85259		9.19852E-05
69000		220.25		5.41717		0.000085683
69500		218.85		5.01168		7.97764E-05
70000		217.45		4.63422		0.000074243
70500		216.05		4.28303		6.90613E-05
71000		214.65		3.95642		0.000064211
71500		213.65		3.6531		5.95657E-05
72000		212.65		3.37176		0.000055237
72500		211.65		3.11092		5.12046E-05
73000		210.65		2.86917		4.74496E-05
73500		209.65		2.64518		0.000043954
74000		208.65		2.43773		0.000040701
74500		207.65		2.24567		3.76748E-05
75000		206.65		2.06792		3.48607E-05
75500		205.65		1.90348		3.22446E-05
76000		204.65		1.7514		2.98135E-05
76500		203.65		1.61082		2.75551E-05
77000		202.65		1.48092		2.54579E-05
77500		201.65		1.36092		2.35111E-05
78000		200.65		1.25012		2.17046E-05
78500		199.65		1.14786		2.00289E-05
79000		198.65		1.05351		1.84751E-05
79500		197.65		0.966494	1.70349E-05
80000		196.65		0.88628		1.57005E-05
80500		195.65		0.812363	1.44647E-05
81000		194.65		0.74428		1.33205E-05
81500		193.65		0.681595	1.22616E-05
82000		192.65		0.623905	0.000011282
82500		191.65		0.570835	1.03762E-05
83000		190.65		0.522037	9.53899E-06
83500		189.65		0.477186	8.76542E-06
84000		188.65		0.435981	8.05098E-06
84500		187.65		0.398143	7.39143E-06
85000		186.946		0.36342		6.77222E-06
85500		186.946		0.331686	6.18086E-06
86000		186.946		0.302723	5.64114E-06
